t (s);X1 (m);Y1 (m)
0;-0.002673796791444;0.417112299465241
0.04;0.042780748663102;0.548128342245989
0.08;0.085561497326203;0.665775401069519
0.12;0.131016042780749;0.762032085561497
0.16;0.17379679144385;0.842245989304813
0.2;0.216577540106952;0.901069518716577
0.24;0.259358288770053;0.943850267379679
0.28;0.304812834224599;0.967914438502674
0.32;0.344919786096257;0.975935828877005
0.36;0.390374331550802;0.96524064171123
0.4;0.433155080213904;0.935828877005348
0.44;0.475935828877005;0.885026737967914
0.48;0.518716577540107;0.818181818181818
0.52;0.558823529411765;0.737967914438503
0.56;0.601604278074866;0.636363636363636
0.6;0.641711229946524;0.516042780748663
0.64;0.679144385026738;0.382352941176471
0.68;0.716577540106952;0.229946524064171
0.72;0.754010695187166;0.066844919786096
0.76;0.788770053475936;-0.042780748663102
0.8;0.818181818181818;0.072192513368984
0.84;0.8475935828877;0.168449197860963
0.88;0.877005347593583;0.251336898395722
0.92;0.903743315508021;0.315508021390374
0.96;0.933155080213904;0.358288770053476
1;0.962566844919786;0.387700534759358
1.04;0.989304812834225;0.401069518716578
1.08;1.01604278074866;0.393048128342246
1.12;1.0427807486631;0.368983957219251
1.16;1.06951871657754;0.32620320855615
1.2;1.09625668449198;0.262032085561497
1.24;1.12032085561497;0.184491978609626
1.28;1.14973262032086;0.090909090909091
1.32;1.17379679144385;-0.024064171122995
