t (s);X1 (m);Y1 (m)
0;0.002531285071148;0.024047208175908
0.04;0.008859497749019;0.02151592310476
0.08;0.018984638033611;0.017718995498037
0.12;0.032906705924926;0.013922067891315
0.16;0.04936005888739;0.008859497749019
0.2;0.070875981992149;0.002531285071148
0.24;0.096188832703631;-0.005062570142296
0.28;0.125298611021835;-0.012656425355741
0.32;0.158205316946761;-0.022781565640334
0.36;0.19490895047841;-0.032906705924926
0.4;0.236675154152355;-0.044297488745093
0.44;0.280972642897448;-0.058219556636408
0.48;0.331598344320411;-0.070875981992149
0.52;0.379692760672227;-0.081001122276742
0.56;0.431584104630764;-0.082266764812316
0.6;0.483475448589302;-0.08353240734789
0.64;0.532835507476691;-0.08353240734789
0.68;0.582195566364081;-0.084798049883464
0.72;0.630289982715896;-0.08353240734789
0.76;0.678384399067712;-0.08353240734789
0.8;0.723947530348379;-0.08353240734789
